t,x,y,theta,,,
0.000,0.207,0.229,0.834,,,
3.337E-02,0.210,0.225,0.822,,,
6.673E-02,0.224,0.217,0.771,,,
0.100,0.240,0.199,0.692,,,
0.133,0.259,0.173,0.590,,,
0.167,0.278,0.140,0.468,,,
0.200,0.298,9.738E-02,0.316,,,
0.234,0.309,5.686E-02,0.182,,,
0.267,0.312,1.477E-03,4.741E-03,,,
0.300,0.306,-5.06E-02,-0.164,,,
0.334,0.291,-9.381E-02,-0.312,,,
0.367,0.270,-0.131,-0.452,,,
0.400,0.251,-0.162,-0.573,,,
0.434,0.232,-0.181,-0.664,,,
0.467,0.215,-0.196,-0.738,,,
0.501,0.202,-0.204,-0.792,,,
0.534,0.198,-0.209,-0.813,,,
0.567,0.195,-0.207,-0.813,,,
0.601,0.203,-0.202,-0.784,,,
0.634,0.216,-0.192,-0.728,,,
0.667,0.230,-0.177,-0.657,,,
0.701,0.249,-0.155,-0.557,,,
0.734,0.268,-0.127,-0.441,,,
0.767,0.287,-9.137E-02,-0.308,,,
0.801,0.299,-4.889E-02,-0.162,,,
0.834,0.305,-5.522E-03,-1.81E-02,,,
0.868,0.302,4.276E-02,0.141,,,
0.901,0.297,8.475E-02,0.278,,,
0.934,0.284,0.125,0.414,,,
0.968,0.267,0.159,0.537,,,
1.001,0.249,0.186,0.641,,,
1.034,0.232,0.205,0.724,,,
1.068,0.219,0.218,0.784,,,
1.101,0.213,0.224,0.811,,,
1.134,0.214,0.224,0.809,,,
1.168,0.219,0.220,0.787,,,
1.201,0.232,0.208,0.731,,,
1.235,0.245,0.190,0.659,,,
1.268,0.265,0.164,0.552,,,
1.301,0.282,0.131,0.434,,,
1.335,0.301,8.863E-02,0.286,,,
1.368,0.308,4.187E-02,0.135,,,
1.401,0.311,-1.036E-02,-3.336E-02,,,
1.435,0.301,-5.131E-02,-0.169,,,
1.468,0.287,-9.848E-02,-0.331,,,
1.502,0.268,-0.130,-0.451,,,
1.535,0.247,-0.159,-0.573,,,
1.568,0.230,-0.180,-0.663,,,
1.602,0.212,-0.194,-0.739,,,
1.635,0.205,-0.201,-0.774,,,
1.668,0.200,-0.203,-0.792,,,
1.702,0.200,-0.203,-0.794,,,
1.735,0.208,-0.194,-0.748,,,
1.768,0.220,-0.183,-0.692,,,
1.802,0.237,-0.170,-0.623,,,
1.835,0.254,-0.145,-0.519,,,
1.869,0.275,-0.117,-0.404,,,
1.902,0.290,-7.957E-02,-0.268,,,
1.935,0.302,-3.946E-02,-0.130,,,
1.969,0.306,7.11E-03,2.322E-02,,,
2.002,0.304,5.143E-02,0.168,,,
2.035,0.297,9.186E-02,0.300,,,
2.069,0.284,0.131,0.432,,,
2.102,0.265,0.165,0.558,,,
2.135,0.248,0.189,0.652,,,
2.169,0.234,0.208,0.728,,,
2.202,0.224,0.218,0.773,,,
2.236,0.217,0.227,0.808,,,
2.269,0.220,0.225,0.796,,,
2.302,0.228,0.220,0.767,,,
2.336,0.238,0.205,0.712,,,
2.369,0.256,0.186,0.629,,,
2.402,0.273,0.157,0.522,,,
2.436,0.290,0.117,0.384,,,
2.469,0.304,7.119E-02,0.230,,,
2.503,0.312,2.282E-02,7.302E-02,,,
2.536,0.310,-1.669E-02,-5.371E-02,,,
2.569,0.300,-6.394E-02,-0.210,,,
2.603,0.284,-0.106,-0.356,,,
2.636,0.266,-0.136,-0.473,,,
2.669,0.243,-0.162,-0.587,,,
2.703,0.225,-0.180,-0.673,,,
2.736,0.212,-0.190,-0.733,,,
2.769,0.207,-0.195,-0.756,,,
2.803,0.203,-0.198,-0.774,,,
2.836,0.207,-0.197,-0.760,,,
2.870,0.216,-0.185,-0.709,,,
2.903,0.229,-0.174,-0.650,,,
2.936,0.245,-0.157,-0.571,,,
2.970,0.262,-0.130,-0.460,,,
3.003,0.281,-9.601E-02,-0.329,,,
3.036,0.292,-6.379E-02,-0.215,,,
3.070,0.302,-2.127E-02,-7.041E-02,,,
3.103,0.306,2.293E-02,7.49E-02,,,
3.136,0.303,6.567E-02,0.213,,,
3.170,0.292,0.109,0.358,,,
3.203,0.276,0.141,0.473,,,
3.237,0.261,0.172,0.584,,,
3.270,0.248,0.193,0.662,,,
3.303,0.233,0.211,0.735,,,
3.337,0.224,0.217,0.769,,,
3.370,0.223,0.224,0.787,,,
3.403,0.227,0.222,0.774,,,
3.437,0.234,0.212,0.737,,,
3.470,0.248,0.196,0.668,,,
3.504,0.269,0.171,0.568,,,
3.537,0.284,0.139,0.454,,,
3.570,0.298,0.101,0.328,,,
3.604,0.307,5.611E-02,0.181,,,
3.637,0.311,8.605E-03,2.767E-02,,,
3.670,0.305,-3.478E-02,-0.113,,,
3.704,0.290,-7.878E-02,-0.265,,,
3.737,0.275,-0.115,-0.396,,,
3.770,0.254,-0.144,-0.514,,,
3.804,0.236,-0.166,-0.612,,,
3.837,0.222,-0.179,-0.678,,,
3.871,0.209,-0.186,-0.728,,,
3.904,0.208,-0.190,-0.740,,,
3.937,0.206,-0.190,-0.746,,,
3.971,0.211,-0.186,-0.724,,,
4.004,0.221,-0.176,-0.672,,,
4.037,0.236,-0.164,-0.608,,,
4.071,0.253,-0.141,-0.510,,,
4.104,0.267,-0.119,-0.421,,,
4.137,0.285,-8.581E-02,-0.292,,,
4.171,0.297,-4.807E-02,-0.160,,,
4.204,0.305,-5.522E-03,-1.81E-02,,,
4.238,0.306,3.716E-02,0.121,,,
4.271,0.299,7.84E-02,0.257,,,
4.304,0.290,0.120,0.391,,,
4.338,0.275,0.153,0.509,,,
4.371,0.257,0.180,0.612,,,
4.404,0.245,0.199,0.682,,,
4.438,0.236,0.214,0.737,,,
4.471,0.225,0.220,0.774,,,
4.505,0.229,0.223,0.773,,,
4.538,0.235,0.216,0.743,,,
4.571,0.246,0.203,0.690,,,
4.605,0.260,0.183,0.612,,,
4.638,0.277,0.157,0.516,,,
4.671,0.295,0.120,0.387,,,
4.705,0.304,7.988E-02,0.257,,,
4.738,0.311,3.47E-02,0.111,,,
4.771,0.307,-1.108E-02,-3.614E-02,,,
4.805,0.299,-5.284E-02,-0.175,,,
4.838,0.285,-9.212E-02,-0.313,,,
4.872,0.267,-0.123,-0.433,,,
4.905,0.246,-0.148,-0.541,,,
4.938,0.233,-0.165,-0.618,,,
4.972,0.219,-0.179,-0.687,,,
5.005,0.211,-0.184,-0.718,,,
5.038,0.208,-0.188,-0.736,,,